Freq[Hz]     dBSPL  Phase[Deg]
5.00000      1.718     0.733
5.07273      1.718     0.744
5.14651      1.718     0.754
5.22137      1.718     0.765
5.29732      1.718     0.777
5.37437      1.719     0.788
5.45254      1.719     0.799
5.53185      1.719     0.811
5.61231      1.719     0.823
5.69394      1.719     0.835
5.77676      1.719     0.847
5.86079      1.719     0.860
5.94604      1.719     0.872
6.03252      1.719     0.885
6.12027      1.719     0.898
6.20929      1.720     0.911
6.29961      1.720     0.924
6.39124      1.720     0.938
6.48420      1.720     0.951
6.57851      1.720     0.965
6.67420      1.720     0.979
6.77128      1.720     0.993
6.86977      1.721     1.008
6.96969      1.721     1.023
7.07107      1.721     1.037
7.17392      1.721     1.053
7.27827      1.721     1.068
7.38413      1.721     1.083
7.49154      1.722     1.099
7.60050      1.722     1.115
7.71105      1.722     1.131
7.82321      1.722     1.148
7.93701      1.722     1.165
8.05245      1.723     1.182
8.16958      1.723     1.199
8.28841      1.723     1.216
8.40896      1.723     1.234
8.53128      1.724     1.252
8.65537      1.724     1.270
8.78126      1.724     1.288
8.90899      1.724     1.307
9.03857      1.725     1.326
9.17004      1.725     1.345
9.30342      1.725     1.365
9.43874      1.725     1.385
9.57603      1.726     1.405
9.71532      1.726     1.425
9.85663      1.726     1.446
10.0000      1.727     1.467
10.1455      1.727     1.488
10.2930      1.727     1.510
10.4427      1.728     1.532
10.5946      1.728     1.554
10.7487      1.728     1.577
10.9051      1.729     1.600
11.0637      1.729     1.623
11.2246      1.730     1.646
11.3879      1.730     1.670
11.5535      1.730     1.694
11.7216      1.731     1.719
11.8921      1.731     1.744
12.0650      1.732     1.769
12.2405      1.732     1.795
12.4186      1.733     1.821
12.5992      1.733     1.847
12.7825      1.734     1.874
12.9684      1.734     1.901
13.1570      1.735     1.928
13.3484      1.735     1.956
13.5426      1.736     1.985
13.7395      1.737     2.013
13.9394      1.737     2.042
14.1421      1.738     2.072
14.3478      1.739     2.102
14.5565      1.739     2.132
14.7683      1.740     2.163
14.9831      1.741     2.194
15.2010      1.741     2.226
15.4221      1.742     2.257
15.6464      1.743     2.289
15.8740      1.744     2.322
16.1049      1.745     2.355
16.3392      1.746     2.388
16.5768      1.746     2.422
16.8179      1.747     2.457
17.0626      1.748     2.491
17.3107      1.749     2.527
17.5625      1.750     2.563
17.8180      1.751     2.599
18.0771      1.752     2.636
18.3401      1.753     2.673
18.6068      1.754     2.711
18.8775      1.756     2.750
19.1521      1.757     2.789
19.4306      1.758     2.828
19.7133      1.759     2.868
20.0000      1.760     2.909
20.2909      1.762     2.950
20.5860      1.763     2.992
20.8855      1.764     3.034
21.1893      1.766     3.077
21.4975      1.767     3.120
21.8102      1.769     3.164
22.1274      1.770     3.209
22.4492      1.772     3.254
22.7758      1.774     3.300
23.1071      1.775     3.347
23.4432      1.777     3.394
23.7841      1.779     3.442
24.1301      1.781     3.490
24.4811      1.783     3.539
24.8372      1.785     3.589
25.1984      1.787     3.639
25.5649      1.789     3.690
25.9368      1.791     3.742
26.3141      1.793     3.795
26.6968      1.795     3.848
27.0851      1.798     3.902
27.4791      1.800     3.956
27.8788      1.802     4.012
28.2843      1.805     4.068
28.6957      1.807     4.124
29.1131      1.810     4.182
29.5365      1.813     4.240
29.9661      1.816     4.299
30.4020      1.819     4.359
30.8442      1.822     4.419
31.2929      1.825     4.481
31.7480      1.828     4.543
32.2098      1.831     4.606
32.6783      1.834     4.669
33.1536      1.838     4.734
33.6359      1.841     4.799
34.1251      1.845     4.865
34.6215      1.849     4.932
35.1250      1.852     5.000
35.6359      1.856     5.068
36.1543      1.860     5.138
36.6802      1.865     5.208
37.2137      1.869     5.279
37.7550      1.873     5.351
38.3041      1.878     5.424
38.8613      1.882     5.498
39.4265      1.887     5.572
40.0000      1.892     5.648
40.5818      1.897     5.724
41.1721      1.902     5.801
41.7710      1.908     5.879
42.3785      1.913     5.958
42.9949      1.919     6.038
43.6203      1.924     6.119
44.2548      1.930     6.200
44.8985      1.936     6.283
45.5515      1.943     6.366
46.2141      1.949     6.450
46.8863      1.956     6.536
47.5683      1.962     6.622
48.2602      1.969     6.708
48.9621      1.977     6.796
49.6743      1.984     6.885
50.3968      1.991     6.975
51.1299      1.999     7.065
51.8736      2.007     7.157
52.6281      2.015     7.249
53.3936      2.024     7.342
54.1702      2.032     7.436
54.9581      2.041     7.531
55.7575      2.050     7.627
56.5685      2.060     7.723
57.3914      2.069     7.821
58.2261      2.079     7.919
59.0730      2.089     8.018
59.9323      2.099     8.117
60.8040      2.110     8.218
61.6884      2.121     8.319
62.5857      2.132     8.422
63.4960      2.143     8.524
64.4196      2.155     8.628
65.3566      2.167     8.732
66.3073      2.180     8.837
67.2717      2.192     8.943
68.2502      2.205     9.049
69.2429      2.218     9.156
70.2501      2.232     9.264
71.2719      2.246     9.372
72.3086      2.260     9.480
73.3603      2.275     9.589
74.4274      2.290     9.699
75.5099      2.306     9.809
76.6083      2.321     9.919
77.7226      2.337    10.030
78.8531      2.354    10.141
80.0000      2.371    10.252
81.1636      2.388    10.364
82.3442      2.406    10.476
83.5419      2.424    10.588
84.7570      2.443    10.700
85.9899      2.462    10.812
87.2406      2.481    10.924
88.5096      2.501    11.037
89.7970      2.522    11.149
91.1031      2.542    11.261
92.4282      2.564    11.372
93.7726      2.586    11.484
95.1366      2.608    11.595
96.5204      2.631    11.706
97.9243      2.654    11.816
99.3486      2.678    11.926
100.794      2.702    12.035
102.260      2.727    12.143
103.747      2.752    12.251
105.256      2.778    12.358
106.787      2.804    12.464
108.340      2.831    12.568
109.916      2.858    12.672
111.515      2.886    12.775
113.137      2.915    12.876
114.783      2.944    12.976
116.452      2.973    13.074
118.146      3.004    13.171
119.865      3.034    13.266
121.608      3.066    13.359
123.377      3.098    13.451
125.171      3.130    13.540
126.992      3.163    13.628
128.839      3.197    13.713
130.713      3.231    13.796
132.615      3.266    13.876
134.543      3.302    13.953
136.500      3.338    14.028
138.486      3.374    14.101
140.500      3.412    14.170
142.544      3.450    14.236
144.617      3.488    14.299
146.721      3.527    14.358
148.855      3.567    14.414
151.020      3.607    14.467
153.217      3.648    14.516
155.445      3.689    14.560
157.706      3.731    14.601
160.000      3.773    14.637
162.327      3.816    14.669
164.688      3.860    14.697
167.084      3.904    14.720
169.514      3.949    14.739
171.980      3.994    14.752
174.481      4.040    14.760
177.019      4.086    14.763
179.594      4.133    14.761
182.206      4.180    14.753
184.856      4.228    14.740
187.545      4.276    14.720
190.273      4.325    14.695
193.041      4.374    14.663
195.849      4.424    14.626
198.697      4.474    14.581
201.587      4.524    14.531
204.520      4.575    14.474
207.494      4.626    14.409
210.512      4.678    14.338
213.574      4.729    14.259
216.681      4.782    14.173
219.833      4.834    14.080
223.030      4.887    13.979
226.274      4.940    13.870
229.565      4.993    13.753
232.905      5.046    13.629
236.292      5.100    13.496
239.729      5.153    13.355
243.216      5.207    13.206
246.754      5.261    13.048
250.343      5.315    12.881
253.984      5.369    12.705
257.678      5.423    12.521
261.426      5.477    12.327
265.229      5.530    12.125
269.087      5.584    11.913
273.001      5.638    11.692
276.972      5.691    11.461
281.000      5.745    11.220
285.088      5.798    10.971
289.234      5.850    10.711
293.441      5.903    10.442
297.709      5.955    10.162
302.040      6.007     9.873
306.433      6.058     9.574
310.890      6.109     9.264
315.412      6.159     8.945
320.000      6.209     8.616
324.655      6.258     8.276
329.377      6.306     7.926
334.168      6.354     7.565
339.028      6.401     7.195
343.959      6.447     6.814
348.962      6.493     6.424
354.038      6.537     6.022
359.188      6.581     5.611
364.412      6.623     5.189
369.713      6.665     4.758
375.090      6.705     4.316
380.546      6.744     3.865
386.081      6.782     3.403
391.697      6.819     2.932
397.394      6.854     2.451
403.175      6.888     1.961
409.039      6.921     1.462
414.989      6.952     0.953
421.025      6.981     0.435
427.149      7.009    -0.092
433.362      7.035    -0.627
439.665      7.059    -1.170
446.060      7.082    -1.720
452.548      7.102    -2.280
459.131      7.121    -2.846
465.809      7.137    -3.419
472.584      7.152    -3.998
479.458      7.164    -4.584
486.432      7.174    -5.176
493.507      7.182    -5.772
500.686      7.188    -6.374
507.968      7.191    -6.979
515.357      7.192    -7.588
522.853      7.190    -8.200
530.458      7.185    -8.814
538.174      7.179    -9.430
546.002      7.169   -10.046
553.943      7.157   -10.663
562.001      7.142   -11.277
570.175      7.124   -11.891
578.469      7.104   -12.501
586.883      7.081   -13.108
595.419      7.055   -13.710
604.080      7.027   -14.305
612.866      6.995   -14.893
621.780      6.961   -15.474
630.824      6.925   -16.044
640.000      6.886   -16.604
649.309      6.844   -17.151
658.753      6.800   -17.684
668.335      6.754   -18.203
678.056      6.705   -18.706
687.919      6.655   -19.191
697.925      6.602   -19.657
708.077      6.549   -20.103
718.376      6.494   -20.527
728.825      6.438   -20.930
739.426      6.381   -21.309
750.181      6.324   -21.663
761.093      6.267   -21.993
772.163      6.210   -22.297
783.394      6.154   -22.577
794.789      6.099   -22.830
806.349      6.046   -23.059
818.078      5.995   -23.264
829.977      5.947   -23.445
842.050      5.902   -23.607
854.298      5.860   -23.749
866.724      5.823   -23.874
879.330      5.790   -23.985
892.120      5.761   -24.085
905.097      5.738   -24.180
918.262      5.720   -24.273
931.618      5.707   -24.367
945.169      5.700   -24.468
958.917      5.698   -24.580
972.864      5.701   -24.708
987.015      5.710   -24.858
1001.37      5.723   -25.033
1015.94      5.741   -25.237
1030.71      5.763   -25.475
1045.71      5.788   -25.751
1060.92      5.816   -26.067
1076.35      5.845   -26.425
1092.00      5.876   -26.828
1107.89      5.907   -27.275
1124.00      5.937   -27.770
1140.35      5.966   -28.311
1156.94      5.994   -28.896
1173.77      6.018   -29.524
1190.84      6.039   -30.193
1208.16      6.055   -30.901
1225.73      6.066   -31.644
1243.56      6.072   -32.418
1261.65      6.072   -33.217
1280.00      6.065   -34.038
1298.62      6.051   -34.875
1317.51      6.029   -35.722
1336.67      6.001   -36.572
1356.11      5.965   -37.420
1375.84      5.922   -38.259
1395.85      5.872   -39.082
1416.15      5.816   -39.883
1436.75      5.753   -40.656
1457.65      5.686   -41.393
1478.85      5.614   -42.093
1500.36      5.539   -42.748
1522.19      5.462   -43.356
1544.33      5.385   -43.915
1566.79      5.308   -44.425
1589.58      5.234   -44.888
1612.70      5.163   -45.305
1636.16      5.098   -45.683
1659.95      5.039   -46.029
1684.10      4.987   -46.354
1708.60      4.944   -46.666
1733.45      4.909   -46.976
1758.66      4.883   -47.298
1784.24      4.866   -47.643
1810.19      4.856   -48.024
1836.52      4.852   -48.448
1863.24      4.854   -48.925
1890.34      4.860   -49.459
1917.83      4.867   -50.058
1945.73      4.875   -50.719
1974.03      4.881   -51.441
2002.74      4.885   -52.221
2031.87      4.884   -53.055
2061.43      4.877   -53.935
2091.41      4.864   -54.851
2121.83      4.844   -55.795
2152.69      4.816   -56.758
2184.01      4.782   -57.730
2215.77      4.741   -58.703
2248.00      4.694   -59.667
2280.70      4.642   -60.619
2313.87      4.587   -61.553
2347.53      4.529   -62.467
2381.68      4.469   -63.360
2416.32      4.410   -64.235
2451.46      4.351   -65.097
2487.12      4.295   -65.951
2523.30      4.241   -66.804
2560.00      4.189   -67.662
2597.24      4.141   -68.538
2635.01      4.095   -69.435
2673.34      4.051   -70.361
2712.23      4.007   -71.319
2751.68      3.964   -72.316
2791.70      3.920   -73.351
2832.31      3.852   -74.407
2873.50      3.779   -75.455
2915.30      3.706   -76.500
2957.70      3.634   -77.543
3000.72      3.562   -78.588
3044.37      3.491   -79.640
3088.65      3.421   -80.707
3133.58      3.352   -81.789
3179.16      3.285   -82.894
3225.40      3.218   -84.026
3272.31      3.152   -85.194
3319.91      3.086   -86.399
3368.20      3.019   -87.646
3417.19      2.949   -88.940
3466.89      2.877   -90.282
3517.32      2.800   -91.672
3568.48      2.717   -93.107
3620.39      2.628   -94.584
3673.05      2.530   -96.096
3726.47      2.425   -97.632
3780.67      2.310   -99.184
3835.67      2.187  -100.745
3891.46      2.056  -102.305
3948.06      1.920  -103.858
4005.49      1.778  -105.404
4063.75      1.633  -106.950
4122.86      1.485  -108.498
4182.82      1.334  -110.061
4243.66      1.182  -111.650
4305.39      1.025  -113.273
4368.01      0.862  -114.932
4431.55      0.691  -116.624
4496.01      0.511  -118.343
4561.40      0.321  -120.073
4627.75      0.122  -121.800
4695.06     -0.084  -123.518
4763.35     -0.295  -125.227
4832.64     -0.509  -126.936
4902.93     -0.724  -128.667
4974.24     -0.943  -130.447
5046.60     -1.167  -132.291
5120.00     -1.402  -134.203
5194.47     -1.660  -136.104
5270.03     -1.923  -138.031
5346.68     -2.192  -140.018
5424.45     -2.473  -142.092
5503.35     -2.774  -144.251
5583.40     -3.102  -146.458
5664.61     -3.460  -148.655
5747.01     -3.845  -150.781
5830.60     -4.248  -152.790
5915.41     -4.657  -154.689
6001.45     -5.063  -156.547
6088.74     -5.463  -158.461
6177.30     -5.867  -160.529
6267.15     -6.292  -162.803
6358.31     -6.757  -165.259
6450.80     -7.274  -167.815
6544.62     -7.847  -170.379
6639.82     -8.471  -172.881
6736.40     -9.139  -175.315
6834.38     -9.850  -177.741
6933.79    -10.613   179.771
7034.64    -11.451   177.188
7136.96    -12.391   174.554
7240.77    -13.456   171.994
7346.09    -14.664   169.665
7452.94    -16.016   167.482
7561.35    -17.585   164.844
7671.33    -19.536   162.516
7782.91    -22.037   161.168
7896.12    -25.392   162.178
8010.97    -30.363   169.828
8127.49    -39.088  -136.058
8245.71    -36.230   -90.714
8365.65    -29.058   -59.581
8487.33    -25.084   -54.123
8610.78    -22.336   -53.557
8736.03    -20.276   -55.028
8863.09    -18.678   -57.515
8992.01    -17.411   -60.502
9122.80    -16.394   -63.700
9255.50    -15.564   -66.913
9390.12    -14.866   -70.044
9526.70    -14.252   -73.152
9665.27    -13.703   -76.398
9805.86    -13.246   -79.866
9948.49    -12.863   -83.408
10093.2    -12.541   -87.102
10240.0    -12.301   -90.881
10388.9    -12.131   -94.488
10540.1    -11.976   -97.865
10693.4    -11.798  -101.402
10848.9    -11.641  -105.518
11006.7    -11.585  -110.139
11166.8    -11.655  -114.768
11329.2    -11.804  -119.067
11494.0    -11.977  -123.152
11661.2    -12.170  -127.285
11830.8    -12.408  -131.553
12002.9    -12.701  -135.903
12177.5    -13.061  -140.403
12354.6    -13.499  -144.951
12534.3    -14.017  -149.362
12716.6    -14.568  -153.636
12901.6    -15.149  -158.350
13089.2    -15.905  -163.824
13279.6    -16.957  -168.881
13472.8    -18.118  -172.337
13668.8    -19.171  -175.773
13867.6    -20.432   178.895
14069.3    -22.298   173.359
14273.9    -24.720   169.689
14481.5    -27.897   167.045
14692.2    -32.714   167.246
14905.9    -47.618  -149.781
15122.7    -38.106   -72.461
15342.7    -30.899   -60.349
15565.8    -27.417   -58.761
15792.2    -24.629   -61.453
16021.9    -22.763   -67.616
16255.0    -21.545   -72.943
16491.4    -20.472   -77.994
16731.3    -19.616   -83.837
16974.7    -18.976   -90.310
17221.6    -18.630   -96.525
17472.1    -18.324  -101.873
17726.2    -18.009  -108.090
17984.0    -17.900  -115.125
18245.6    -17.966  -122.139
18511.0    -18.191  -129.339
18780.2    -18.584  -136.245
19053.4    -19.088  -143.240
19330.5    -19.729  -150.289
19611.7    -20.553  -157.970
19897.0    -21.691  -165.580
20186.4    -23.063  -172.978
20480.0    -24.804   178.898
20777.9    -27.218   170.328
21080.1    -30.632   161.126
21386.7    -36.393   147.599
21697.8    -64.439  -136.364
22013.4    -37.790   -32.448
22333.6    -31.735   -41.064
22658.4    -28.059   -51.473
22988.0    -26.008   -61.856
23322.4    -24.548   -70.438
23661.6    -23.474   -79.352
24005.8    -22.765   -88.394
24355.0    -22.353   -97.260
24709.2    -22.163  -105.940
25068.6    -22.155  -114.902
25433.2    -22.438  -124.571
25803.2    -23.062  -133.681
26178.5    -23.927  -142.592
26559.3    -25.180  -152.420
26945.6    -27.015  -160.654
27337.5    -29.568  -168.549
27735.2    -33.296  -173.225
28138.6    -40.808  -161.779
28547.9    -49.313  -105.857
28963.1    -36.397   -50.341
29384.4    -31.692   -56.230
29811.8    -28.743   -64.514
30245.4    -27.155   -74.531
30685.3    -26.035   -84.315
31131.7    -25.439   -95.035
31584.5    -25.222  -105.852
32043.9    -25.508  -115.783
32510.0    -26.026  -127.109
32982.8    -27.204  -137.556
33462.6    -28.867  -148.302
33949.3    -31.565  -155.727
34443.1    -36.089  -163.107
34944.1    -46.654  -128.336
35452.4    -43.964   -70.442
35968.0    -35.561   -52.714
36491.2    -31.668   -56.372
37022.0    -29.595   -65.885
37560.5    -28.311   -75.963
38106.8    -27.745   -86.607
38661.1    -27.898   -95.750
39223.4    -28.530  -103.035
39793.9    -29.867  -106.075
