Freq[Hz]     dBSPL  Phase[Deg]
5.00000      1.316     0.254
5.07273      1.316     0.258
5.14651      1.316     0.262
5.22137      1.316     0.266
5.29732      1.316     0.270
5.37437      1.316     0.274
5.45254      1.316     0.278
5.53185      1.316     0.282
5.61231      1.316     0.286
5.69394      1.317     0.290
5.77676      1.317     0.294
5.86079      1.317     0.299
5.94604      1.317     0.303
6.03252      1.317     0.307
6.12027      1.317     0.312
6.20929      1.317     0.316
6.29961      1.317     0.321
6.39124      1.317     0.326
6.48420      1.317     0.331
6.57851      1.318     0.335
6.67420      1.318     0.340
6.77128      1.318     0.345
6.86977      1.318     0.350
6.96969      1.318     0.355
7.07107      1.318     0.361
7.17392      1.318     0.366
7.27827      1.318     0.371
7.38413      1.318     0.377
7.49154      1.319     0.382
7.60050      1.319     0.388
7.71105      1.319     0.393
7.82321      1.319     0.399
7.93701      1.319     0.405
8.05245      1.319     0.411
8.16958      1.320     0.417
8.28841      1.320     0.423
8.40896      1.320     0.429
8.53128      1.320     0.435
8.65537      1.320     0.442
8.78126      1.320     0.448
8.90899      1.321     0.454
9.03857      1.321     0.461
9.17004      1.321     0.468
9.30342      1.321     0.475
9.43874      1.321     0.481
9.57603      1.322     0.488
9.71532      1.322     0.496
9.85663      1.322     0.503
10.0000      1.322     0.510
10.1455      1.323     0.517
10.2930      1.323     0.525
10.4427      1.323     0.533
10.5946      1.323     0.540
10.7487      1.324     0.548
10.9051      1.324     0.556
11.0637      1.324     0.564
11.2246      1.325     0.572
11.3879      1.325     0.580
11.5535      1.325     0.589
11.7216      1.326     0.597
11.8921      1.326     0.606
12.0650      1.326     0.615
12.2405      1.327     0.624
12.4186      1.327     0.633
12.5992      1.327     0.642
12.7825      1.328     0.651
12.9684      1.328     0.660
13.1570      1.329     0.670
13.3484      1.329     0.679
13.5426      1.329     0.689
13.7395      1.330     0.699
13.9394      1.330     0.709
14.1421      1.331     0.719
14.3478      1.331     0.730
14.5565      1.332     0.740
14.7683      1.332     0.751
14.9831      1.333     0.761
15.2010      1.333     0.772
15.4221      1.334     0.782
15.6464      1.335     0.793
15.8740      1.335     0.804
16.1049      1.336     0.815
16.3392      1.336     0.826
16.5768      1.337     0.838
16.8179      1.338     0.849
17.0626      1.339     0.861
17.3107      1.339     0.872
17.5625      1.340     0.884
17.8180      1.341     0.896
18.0771      1.342     0.909
18.3401      1.342     0.921
18.6068      1.343     0.934
18.8775      1.344     0.946
19.1521      1.345     0.959
19.4306      1.346     0.972
19.7133      1.347     0.986
20.0000      1.348     0.999
20.2909      1.349     1.013
20.5860      1.350     1.026
20.8855      1.351     1.040
21.1893      1.352     1.054
21.4975      1.353     1.069
21.8102      1.354     1.083
22.1274      1.355     1.098
22.4492      1.356     1.113
22.7758      1.358     1.128
23.1071      1.359     1.143
23.4432      1.360     1.158
23.7841      1.362     1.174
24.1301      1.363     1.190
24.4811      1.364     1.205
24.8372      1.366     1.222
25.1984      1.367     1.238
25.5649      1.369     1.254
25.9368      1.370     1.271
26.3141      1.372     1.288
26.6968      1.374     1.305
27.0851      1.375     1.322
27.4791      1.377     1.340
27.8788      1.379     1.358
28.2843      1.381     1.375
28.6957      1.383     1.393
29.1131      1.385     1.412
29.5365      1.387     1.430
29.9661      1.389     1.449
30.4020      1.391     1.468
30.8442      1.393     1.487
31.2929      1.396     1.506
31.7480      1.398     1.525
32.2098      1.401     1.545
32.6783      1.403     1.565
33.1536      1.406     1.585
33.6359      1.408     1.605
34.1251      1.411     1.625
34.6215      1.414     1.646
35.1250      1.417     1.667
35.6359      1.420     1.688
36.1543      1.423     1.709
36.6802      1.426     1.730
37.2137      1.429     1.752
37.7550      1.432     1.773
38.3041      1.436     1.795
38.8613      1.439     1.817
39.4265      1.443     1.839
40.0000      1.446     1.861
40.5818      1.450     1.884
41.1721      1.454     1.906
41.7710      1.458     1.929
42.3785      1.462     1.952
42.9949      1.466     1.975
43.6203      1.470     1.998
44.2548      1.475     2.021
44.8985      1.479     2.044
45.5515      1.484     2.068
46.2141      1.489     2.091
46.8863      1.494     2.115
47.5683      1.499     2.138
48.2602      1.504     2.162
48.9621      1.510     2.186
49.6743      1.515     2.210
50.3968      1.521     2.233
51.1299      1.526     2.257
51.8736      1.532     2.281
52.6281      1.539     2.305
53.3936      1.545     2.329
54.1702      1.551     2.352
54.9581      1.558     2.376
55.7575      1.565     2.400
56.5685      1.572     2.423
57.3914      1.579     2.447
58.2261      1.586     2.470
59.0730      1.594     2.493
59.9323      1.601     2.516
60.8040      1.609     2.539
61.6884      1.617     2.561
62.5857      1.626     2.584
63.4960      1.634     2.606
64.4196      1.643     2.627
65.3566      1.652     2.649
66.3073      1.661     2.670
67.2717      1.671     2.690
68.2502      1.680     2.711
69.2429      1.690     2.730
70.2501      1.701     2.750
71.2719      1.711     2.769
72.3086      1.722     2.787
73.3603      1.733     2.805
74.4274      1.744     2.822
75.5099      1.755     2.838
76.6083      1.767     2.854
77.7226      1.779     2.869
78.8531      1.791     2.883
80.0000      1.804     2.896
81.1636      1.817     2.908
82.3442      1.830     2.919
83.5419      1.844     2.930
84.7570      1.858     2.939
85.9899      1.872     2.947
87.2406      1.886     2.954
88.5096      1.901     2.960
89.7970      1.916     2.965
91.1031      1.932     2.968
92.4282      1.947     2.969
93.7726      1.964     2.970
95.1366      1.980     2.968
96.5204      1.997     2.965
97.9243      2.014     2.960
99.3486      2.032     2.954
100.794      2.050     2.945
102.260      2.068     2.935
103.747      2.087     2.922
105.256      2.106     2.908
106.787      2.125     2.891
108.340      2.145     2.872
109.916      2.165     2.850
111.515      2.186     2.826
113.137      2.207     2.799
114.783      2.228     2.770
116.452      2.250     2.738
118.146      2.272     2.703
119.865      2.295     2.665
121.608      2.317     2.623
123.377      2.341     2.579
125.171      2.365     2.531
126.992      2.389     2.480
128.839      2.413     2.425
130.713      2.438     2.366
132.615      2.463     2.304
134.543      2.489     2.238
136.500      2.515     2.167
138.486      2.542     2.093
140.500      2.568     2.014
142.544      2.596     1.930
144.617      2.623     1.842
146.721      2.651     1.749
148.855      2.680     1.651
151.020      2.708     1.548
153.217      2.737     1.441
155.445      2.767     1.328
157.706      2.796     1.209
160.000      2.826     1.084
162.327      2.857     0.954
164.688      2.887     0.818
167.084      2.918     0.677
169.514      2.949     0.529
171.980      2.981     0.374
174.481      3.012     0.213
177.019      3.044     0.046
179.594      3.076    -0.128
182.206      3.109    -0.309
184.856      3.141    -0.497
187.545      3.174    -0.693
190.273      3.207    -0.895
193.041      3.240    -1.106
195.849      3.273    -1.323
198.697      3.306    -1.549
201.587      3.339    -1.782
204.520      3.373    -2.023
207.494      3.406    -2.273
210.512      3.439    -2.531
213.574      3.472    -2.797
216.681      3.506    -3.072
219.833      3.539    -3.355
223.030      3.572    -3.647
226.274      3.605    -3.948
229.565      3.637    -4.258
232.905      3.670    -4.577
236.292      3.702    -4.906
239.729      3.734    -5.243
243.216      3.766    -5.590
246.754      3.797    -5.946
250.343      3.828    -6.312
253.984      3.858    -6.688
257.678      3.889    -7.073
261.426      3.918    -7.467
265.229      3.947    -7.871
269.087      3.976    -8.286
273.001      4.004    -8.710
276.972      4.031    -9.144
281.000      4.058    -9.587
285.088      4.083   -10.041
289.234      4.108   -10.504
293.441      4.133   -10.977
297.709      4.156   -11.460
302.040      4.179   -11.952
306.433      4.200   -12.454
310.890      4.221   -12.966
315.412      4.240   -13.487
320.000      4.258   -14.017
324.655      4.276   -14.557
329.377      4.292   -15.106
334.168      4.307   -15.664
339.028      4.320   -16.231
343.959      4.333   -16.806
348.962      4.344   -17.390
354.038      4.353   -17.982
359.188      4.361   -18.583
364.412      4.368   -19.191
369.713      4.373   -19.806
375.090      4.376   -20.429
380.546      4.378   -21.059
386.081      4.379   -21.696
391.697      4.377   -22.339
397.394      4.374   -22.988
403.175      4.369   -23.642
409.039      4.363   -24.301
414.989      4.354   -24.966
421.025      4.344   -25.635
427.149      4.332   -26.308
433.362      4.319   -26.984
439.665      4.303   -27.663
446.060      4.285   -28.345
452.548      4.266   -29.029
459.131      4.245   -29.715
465.809      4.222   -30.402
472.584      4.197   -31.089
479.458      4.171   -31.776
486.432      4.142   -32.462
493.507      4.112   -33.148
500.686      4.081   -33.832
507.968      4.047   -34.514
515.357      4.012   -35.194
522.853      3.976   -35.870
530.458      3.938   -36.543
538.174      3.899   -37.212
546.002      3.858   -37.877
553.943      3.816   -38.537
562.001      3.774   -39.192
570.175      3.730   -39.841
578.469      3.685   -40.486
586.883      3.639   -41.124
595.419      3.593   -41.757
604.080      3.546   -42.383
612.866      3.499   -43.003
621.780      3.451   -43.618
630.824      3.403   -44.227
640.000      3.355   -44.830
649.309      3.307   -45.427
658.753      3.260   -46.019
668.335      3.212   -46.607
678.056      3.165   -47.189
687.919      3.119   -47.768
697.925      3.073   -48.343
708.077      3.028   -48.914
718.376      2.984   -49.483
728.825      2.941   -50.051
739.426      2.898   -50.617
750.181      2.858   -51.182
761.093      2.818   -51.747
772.163      2.780   -52.313
783.394      2.743   -52.881
794.789      2.708   -53.452
806.349      2.674   -54.026
818.078      2.643   -54.605
829.977      2.613   -55.189
842.050      2.585   -55.782
854.298      2.560   -56.383
866.724      2.537   -56.993
879.330      2.516   -57.616
892.120      2.498   -58.253
905.097      2.482   -58.907
918.262      2.468   -59.579
931.618      2.457   -60.272
945.169      2.449   -60.989
958.917      2.442   -61.733
972.864      2.438   -62.508
987.015      2.436   -63.315
1001.37      2.435   -64.157
1015.94      2.436   -65.038
1030.71      2.438   -65.960
1045.71      2.439   -66.927
1060.92      2.441   -67.940
1076.35      2.442   -69.000
1092.00      2.441   -70.109
1107.89      2.438   -71.267
1124.00      2.432   -72.475
1140.35      2.423   -73.733
1156.94      2.408   -75.037
1173.77      2.389   -76.387
1190.84      2.364   -77.779
1208.16      2.332   -79.212
1225.73      2.293   -80.680
1243.56      2.246   -82.178
1261.65      2.191   -83.702
1280.00      2.128   -85.246
1298.62      2.057   -86.806
1317.51      1.977   -88.374
1336.67      1.889   -89.945
1356.11      1.792   -91.513
1375.84      1.688   -93.075
1395.85      1.578   -94.624
1416.15      1.460   -96.158
1436.75      1.337   -97.672
1457.65      1.209   -99.166
1478.85      1.078  -100.640
1500.36      0.943  -102.093
1522.19      0.805  -103.527
1544.33      0.666  -104.944
1566.79      0.526  -106.348
1589.58      0.385  -107.743
1612.70      0.244  -109.133
1636.16      0.102  -110.521
1659.95     -0.039  -111.913
1684.10     -0.181  -113.313
1708.60     -0.323  -114.723
1733.45     -0.465  -116.147
1758.66     -0.608  -117.588
1784.24     -0.752  -119.050
1810.19     -0.897  -120.536
1836.52     -1.042  -122.050
1863.24     -1.189  -123.596
1890.34     -1.338  -125.177
1917.83     -1.489  -126.803
1945.73     -1.642  -128.475
1974.03     -1.800  -130.198
2002.74     -1.962  -131.977
2031.87     -2.131  -133.818
2061.43     -2.307  -135.719
2091.41     -2.492  -137.683
2121.83     -2.688  -139.707
2152.69     -2.896  -141.791
2184.01     -3.117  -143.932
2215.77     -3.354  -146.125
2248.00     -3.606  -148.364
2280.70     -3.876  -150.645
2313.87     -4.164  -152.964
2347.53     -4.472  -155.312
2381.68     -4.801  -157.683
2416.32     -5.152  -160.070
2451.46     -5.526  -162.465
2487.12     -5.922  -164.859
2523.30     -6.343  -167.245
2560.00     -6.788  -169.617
2597.24     -7.256  -171.978
2635.01     -7.749  -174.329
2673.34     -8.267  -176.682
2712.23     -8.812  -179.051
2751.68     -9.388   178.542
2791.70    -10.002   176.081
2832.31    -10.711   173.251
2873.50    -11.485   170.354
2915.30    -12.320   167.429
2957.70    -13.226   164.458
3000.72    -14.213   161.408
3044.37    -15.300   158.229
3088.65    -16.511   154.847
3133.58    -17.883   151.155
3179.16    -19.474   146.963
3225.40    -21.375   141.914
3272.31    -23.748   135.234
3319.91    -26.902   124.936
3368.20    -31.367   104.344
3417.19    -36.636    54.306
3466.89    -30.756    -0.716
3517.32    -26.610   -23.385
3568.48    -23.614   -35.547
3620.39    -21.444   -44.380
3673.05    -19.829   -51.709
3726.47    -18.610   -58.081
3780.67    -17.679   -63.651
3835.67    -16.950   -68.481
3891.46    -16.347   -72.662
3948.06    -15.813   -76.378
4005.49    -15.314   -79.886
4063.75    -14.842   -83.434
4122.86    -14.409   -87.168
4182.82    -14.031   -91.111
4243.66    -13.717   -95.197
4305.39    -13.462   -99.344
4368.01    -13.254  -103.521
4431.55    -13.083  -107.777
4496.01    -12.949  -112.199
4561.40    -12.864  -116.836
4627.75    -12.845  -121.663
4695.06    -12.901  -126.582
4763.35    -13.032  -131.470
4832.64    -13.222  -136.246
4902.93    -13.459  -140.911
4974.24    -13.731  -145.538
5046.60    -14.040  -150.210
5120.00    -14.396  -154.991
5194.47    -14.888  -159.684
5270.03    -15.454  -164.333
5346.68    -16.093  -168.973
5424.45    -16.808  -173.712
5503.35    -17.627  -178.692
5583.40    -18.601   176.020
5664.61    -19.799   170.546
5747.01    -21.288   165.182
5830.60    -23.132   160.233
5915.41    -25.456   155.875
6001.45    -28.605   152.574
6088.74    -33.512   153.729
6177.30    -41.881  -166.916
6267.15    -40.494   -93.797
6358.31    -33.117   -76.853
6450.80    -29.763   -74.551
6544.62    -27.169   -73.871
6639.82    -24.905   -76.312
6736.40    -23.100   -81.778
6834.38    -21.818   -88.684
6933.79    -20.945   -95.617
7034.64    -20.308  -102.153
7136.96    -19.809  -108.626
7240.77    -19.444  -115.306
7346.09    -19.222  -122.109
7452.94    -19.114  -128.936
7561.35    -19.117  -135.639
7671.33    -19.243  -142.311
7782.91    -19.498  -149.049
7896.12    -19.899  -155.739
8010.97    -20.417  -162.270
8127.49    -21.033  -169.091
8245.71    -21.860  -176.765
8365.65    -23.105   175.140
8487.33    -24.882   168.138
8610.78    -27.121   163.822
8736.03    -29.686   162.502
8863.09    -32.886   163.209
8992.01    -39.176   175.672
9122.80    -46.587  -148.365
9255.50    -35.662   -82.628
9390.12    -30.739   -86.134
9526.70    -28.122   -93.221
9665.27    -26.395  -100.536
9805.86    -25.108  -108.608
9948.49    -24.160  -117.183
10093.2    -23.516  -126.252
10240.0    -23.202  -135.585
10388.9    -23.147  -144.402
10540.1    -23.169  -153.295
10693.4    -23.426  -163.916
10848.9    -24.270  -174.974
11006.7    -25.544   176.074
11166.8    -26.962   167.948
11329.2    -28.861   159.085
11494.0    -31.676   150.309
11661.2    -36.581   142.673
11830.8    -51.824  -175.532
12002.9    -41.939  -103.669
12177.5    -34.946   -94.181
12354.6    -31.356  -101.108
12534.3    -29.225  -111.357
12716.6    -27.800  -121.179
12901.6    -26.709  -133.273
13089.2    -26.445  -146.330
13279.6    -26.502  -156.964
13472.8    -26.610  -169.179
13668.8    -27.349   176.529
13867.6    -28.893   162.561
14069.3    -31.199   150.163
14273.9    -34.544   137.789
14481.5    -40.636   123.558
14692.2    -79.013   133.740
14905.9    -40.077   -73.178
15122.7    -34.700   -91.026
15342.7    -31.584  -108.432
15565.8    -30.209  -125.541
15792.2    -29.500  -139.662
16021.9    -29.184  -154.021
16255.0    -29.249  -169.881
16491.4    -30.214   172.652
16731.3    -32.043   155.971
16974.7    -34.941   138.295
17221.6    -40.357   111.049
17472.1    -73.353   -44.502
17726.2    -41.299   -70.324
17984.0    -36.312   -92.978
18245.6    -33.150  -108.576
18511.0    -31.457  -129.390
18780.2    -31.023  -147.214
19053.4    -31.273  -164.731
19330.5    -32.586   178.598
19611.7    -35.106   165.099
19897.0    -39.152   156.487
20186.4    -48.633  -169.744
20480.0    -45.188  -128.065
20777.9    -37.723  -118.094
21080.1    -34.588  -131.104
21386.7    -33.022  -148.505
21697.8    -32.642  -167.013
22013.4    -33.475   173.651
22333.6    -35.376   157.048
22658.4    -39.874   140.290
22988.0    -53.613   167.749
23322.4    -45.559  -131.039
23661.6    -38.190  -129.609
24005.8    -35.613  -147.068
24355.0    -34.080  -165.673
24709.2    -35.014   170.549
25068.6    -36.486   155.530
25433.2    -40.714   133.318
25803.2    -55.836   174.147
26178.5    -45.385  -136.049
26559.3    -38.842  -140.318
26945.6    -36.429  -162.315
27337.5    -36.130   176.650
27735.2    -37.278   154.448
28138.6    -41.008   135.791
28547.9    -53.336   157.482
28963.1    -47.599  -148.913
29384.4    -39.976  -155.291
29811.8    -37.478  -173.790
30245.4    -37.307   159.726
30685.3    -39.370   137.520
31131.7    -45.532   124.817
31584.5    -54.517   149.784
32043.9    -42.244  -153.281
32510.0    -38.926  -178.774
32982.8    -38.345   152.767
33462.6    -40.319   130.249
33949.3    -47.471   121.875
34443.1    -53.408   156.926
34944.1    -42.486   179.115
35452.4    -39.311   150.759
35968.0    -39.615   118.993
36491.2    -44.009    81.753
37022.0    -61.266   127.541
37560.5    -45.804   170.275
38106.8    -40.902   137.932
38661.1    -40.377    97.136
39223.4    -43.924    51.704
39793.9    -59.741    45.990
