Freq[Hz]     dBSPL  Phase[Deg]
5.00000      1.782     0.868
5.07273      1.783     0.881
5.14651      1.783     0.894
5.22137      1.783     0.907
5.29732      1.783     0.920
5.37437      1.783     0.933
5.45254      1.783     0.947
5.53185      1.783     0.961
5.61231      1.783     0.975
5.69394      1.783     0.989
5.77676      1.784     1.003
5.86079      1.784     1.018
5.94604      1.784     1.033
6.03252      1.784     1.048
6.12027      1.784     1.063
6.20929      1.784     1.079
6.29961      1.784     1.094
6.39124      1.785     1.110
6.48420      1.785     1.126
6.57851      1.785     1.143
6.67420      1.785     1.159
6.77128      1.785     1.176
6.86977      1.785     1.193
6.96969      1.786     1.211
7.07107      1.786     1.228
7.17392      1.786     1.246
7.27827      1.786     1.264
7.38413      1.786     1.283
7.49154      1.787     1.302
7.60050      1.787     1.320
7.71105      1.787     1.340
7.82321      1.787     1.359
7.93701      1.787     1.379
8.05245      1.788     1.399
8.16958      1.788     1.419
8.28841      1.788     1.440
8.40896      1.789     1.461
8.53128      1.789     1.482
8.65537      1.789     1.504
8.78126      1.789     1.526
8.90899      1.790     1.548
9.03857      1.790     1.570
9.17004      1.790     1.593
9.30342      1.791     1.616
9.43874      1.791     1.640
9.57603      1.791     1.663
9.71532      1.792     1.688
9.85663      1.792     1.712
10.0000      1.792     1.737
10.1455      1.793     1.762
10.2930      1.793     1.788
10.4427      1.794     1.814
10.5946      1.794     1.840
10.7487      1.795     1.866
10.9051      1.795     1.894
11.0637      1.795     1.921
11.2246      1.796     1.949
11.3879      1.796     1.977
11.5535      1.797     2.006
11.7216      1.797     2.035
11.8921      1.798     2.064
12.0650      1.799     2.094
12.2405      1.799     2.124
12.4186      1.800     2.155
12.5992      1.800     2.186
12.7825      1.801     2.218
12.9684      1.802     2.250
13.1570      1.802     2.282
13.3484      1.803     2.315
13.5426      1.804     2.349
13.7395      1.804     2.383
13.9394      1.805     2.417
14.1421      1.806     2.452
14.3478      1.807     2.488
14.5565      1.807     2.523
14.7683      1.808     2.560
14.9831      1.809     2.597
15.2010      1.810     2.634
15.4221      1.811     2.671
15.6464      1.812     2.709
15.8740      1.813     2.748
16.1049      1.814     2.787
16.3392      1.815     2.826
16.5768      1.816     2.867
16.8179      1.817     2.907
17.0626      1.818     2.949
17.3107      1.819     2.991
17.5625      1.820     3.033
17.8180      1.821     3.076
18.0771      1.823     3.120
18.3401      1.824     3.164
18.6068      1.825     3.209
18.8775      1.826     3.254
19.1521      1.828     3.300
19.4306      1.829     3.347
19.7133      1.831     3.395
20.0000      1.832     3.443
20.2909      1.834     3.491
20.5860      1.835     3.541
20.8855      1.837     3.591
21.1893      1.839     3.642
21.4975      1.840     3.693
21.8102      1.842     3.745
22.1274      1.844     3.798
22.4492      1.846     3.852
22.7758      1.848     3.906
23.1071      1.850     3.961
23.4432      1.852     4.017
23.7841      1.854     4.073
24.1301      1.856     4.130
24.4811      1.858     4.188
24.8372      1.861     4.247
25.1984      1.863     4.307
25.5649      1.865     4.367
25.9368      1.868     4.428
26.3141      1.870     4.490
26.6968      1.873     4.553
27.0851      1.876     4.617
27.4791      1.878     4.681
27.8788      1.881     4.747
28.2843      1.884     4.813
28.6957      1.887     4.880
29.1131      1.890     4.948
29.5365      1.894     5.016
29.9661      1.897     5.086
30.4020      1.900     5.156
30.8442      1.904     5.228
31.2929      1.907     5.300
31.7480      1.911     5.373
32.2098      1.915     5.447
32.6783      1.919     5.522
33.1536      1.923     5.598
33.6359      1.927     5.675
34.1251      1.931     5.753
34.6215      1.935     5.832
35.1250      1.940     5.912
35.6359      1.944     5.992
36.1543      1.949     6.074
36.6802      1.954     6.157
37.2137      1.959     6.241
37.7550      1.964     6.325
38.3041      1.969     6.411
38.8613      1.975     6.497
39.4265      1.980     6.585
40.0000      1.986     6.674
40.5818      1.992     6.763
41.1721      1.998     6.854
41.7710      2.004     6.946
42.3785      2.010     7.038
42.9949      2.017     7.132
43.6203      2.023     7.227
44.2548      2.030     7.322
44.8985      2.037     7.419
45.5515      2.045     7.517
46.2141      2.052     7.616
46.8863      2.060     7.715
47.5683      2.068     7.816
48.2602      2.076     7.918
48.9621      2.084     8.021
49.6743      2.092     8.124
50.3968      2.101     8.229
51.1299      2.110     8.335
51.8736      2.119     8.442
52.6281      2.129     8.550
53.3936      2.138     8.658
54.1702      2.148     8.768
54.9581      2.159     8.878
55.7575      2.169     8.990
56.5685      2.180     9.103
57.3914      2.191     9.216
58.2261      2.202     9.330
59.0730      2.213     9.446
59.9323      2.225     9.562
60.8040      2.237     9.679
61.6884      2.250     9.796
62.5857      2.263     9.915
63.4960      2.276    10.034
64.4196      2.289    10.155
65.3566      2.303    10.275
66.3073      2.317    10.397
67.2717      2.331    10.519
68.2502      2.346    10.642
69.2429      2.361    10.766
70.2501      2.377    10.890
71.2719      2.393    11.015
72.3086      2.409    11.140
73.3603      2.426    11.266
74.4274      2.443    11.393
75.5099      2.460    11.519
76.6083      2.478    11.647
77.7226      2.496    11.774
78.8531      2.515    11.902
80.0000      2.534    12.030
81.1636      2.554    12.158
82.3442      2.574    12.287
83.5419      2.594    12.415
84.7570      2.615    12.544
85.9899      2.636    12.672
87.2406      2.658    12.801
88.5096      2.680    12.929
89.7970      2.703    13.057
91.1031      2.726    13.185
92.4282      2.750    13.313
93.7726      2.774    13.440
95.1366      2.799    13.567
96.5204      2.824    13.693
97.9243      2.850    13.818
99.3486      2.876    13.943
100.794      2.903    14.067
102.260      2.930    14.190
103.747      2.958    14.313
105.256      2.986    14.434
106.787      3.015    14.554
108.340      3.045    14.673
109.916      3.075    14.790
111.515      3.105    14.907
113.137      3.136    15.021
114.783      3.168    15.134
116.452      3.200    15.246
118.146      3.233    15.355
119.865      3.266    15.463
121.608      3.300    15.569
123.377      3.334    15.672
125.171      3.369    15.774
126.992      3.405    15.873
128.839      3.441    15.969
130.713      3.477    16.063
132.615      3.515    16.154
134.543      3.552    16.243
136.500      3.591    16.328
138.486      3.629    16.411
140.500      3.669    16.490
142.544      3.709    16.566
144.617      3.749    16.639
146.721      3.790    16.708
148.855      3.831    16.773
151.020      3.873    16.835
153.217      3.916    16.893
155.445      3.959    16.947
157.706      4.002    16.996
160.000      4.046    17.041
162.327      4.091    17.082
164.688      4.135    17.119
167.084      4.181    17.150
169.514      4.226    17.177
171.980      4.272    17.199
174.481      4.319    17.216
177.019      4.366    17.228
179.594      4.413    17.235
182.206      4.461    17.236
184.856      4.509    17.232
187.545      4.557    17.222
190.273      4.605    17.207
193.041      4.654    17.185
195.849      4.703    17.158
198.697      4.753    17.125
201.587      4.802    17.086
204.520      4.852    17.040
207.494      4.902    16.988
210.512      4.952    16.930
213.574      5.002    16.865
216.681      5.053    16.794
219.833      5.103    16.716
223.030      5.154    16.632
226.274      5.204    16.540
229.565      5.255    16.442
232.905      5.305    16.337
236.292      5.356    16.225
239.729      5.406    16.106
243.216      5.457    15.980
246.754      5.507    15.847
250.343      5.557    15.706
253.984      5.607    15.559
257.678      5.656    15.404
261.426      5.706    15.242
265.229      5.755    15.074
269.087      5.804    14.898
273.001      5.852    14.714
276.972      5.900    14.524
281.000      5.948    14.327
285.088      5.995    14.122
289.234      6.042    13.911
293.441      6.088    13.693
297.709      6.134    13.468
302.040      6.179    13.236
306.433      6.224    12.997
310.890      6.268    12.752
315.412      6.311    12.500
320.000      6.354    12.242
324.655      6.396    11.977
329.377      6.437    11.707
334.168      6.477    11.430
339.028      6.517    11.147
343.959      6.556    10.859
348.962      6.593    10.566
354.038      6.631    10.266
359.188      6.667     9.962
364.412      6.702     9.653
369.713      6.736     9.339
375.090      6.770     9.021
380.546      6.802     8.698
386.081      6.834     8.371
391.697      6.864     8.040
397.394      6.894     7.706
403.175      6.922     7.369
409.039      6.950     7.028
414.989      6.977     6.684
421.025      7.002     6.338
427.149      7.027     5.989
433.362      7.051     5.639
439.665      7.073     5.286
446.060      7.095     4.932
452.548      7.116     4.576
459.131      7.136     4.219
465.809      7.155     3.861
472.584      7.174     3.502
479.458      7.191     3.143
486.432      7.208     2.782
493.507      7.225     2.421
500.686      7.240     2.059
507.968      7.255     1.697
515.357      7.270     1.335
522.853      7.284     0.971
530.458      7.297     0.607
538.174      7.310     0.241
546.002      7.323    -0.126
553.943      7.335    -0.495
562.001      7.348    -0.865
570.175      7.360    -1.238
578.469      7.372    -1.614
586.883      7.383    -1.994
595.419      7.395    -2.377
604.080      7.407    -2.765
612.866      7.418    -3.159
621.780      7.429    -3.559
630.824      7.440    -3.967
640.000      7.451    -4.382
649.309      7.461    -4.805
658.753      7.471    -5.239
668.335      7.481    -5.682
678.056      7.490    -6.138
687.919      7.498    -6.605
697.925      7.505    -7.084
708.077      7.512    -7.577
718.376      7.516    -8.084
728.825      7.519    -8.605
739.426      7.521    -9.141
750.181      7.520    -9.691
761.093      7.517   -10.255
772.163      7.511   -10.834
783.394      7.502   -11.426
794.789      7.489   -12.031
806.349      7.473   -12.648
818.078      7.452   -13.275
829.977      7.428   -13.910
842.050      7.398   -14.553
854.298      7.364   -15.199
866.724      7.324   -15.846
879.330      7.278   -16.492
892.120      7.226   -17.132
905.097      7.169   -17.763
918.262      7.105   -18.380
931.618      7.035   -18.979
945.169      6.958   -19.554
958.917      6.876   -20.099
972.864      6.787   -20.611
987.015      6.693   -21.081
1001.37      6.594   -21.505
1015.94      6.491   -21.876
1030.71      6.384   -22.188
1045.71      6.274   -22.438
1060.92      6.163   -22.620
1076.35      6.052   -22.730
1092.00      5.942   -22.767
1107.89      5.836   -22.729
1124.00      5.734   -22.619
1140.35      5.640   -22.440
1156.94      5.554   -22.198
1173.77      5.479   -21.902
1190.84      5.415   -21.563
1208.16      5.364   -21.195
1225.73      5.327   -20.813
1243.56      5.303   -20.430
1261.65      5.293   -20.065
1280.00      5.296   -19.733
1298.62      5.310   -19.449
1317.51      5.334   -19.223
1336.67      5.366   -19.065
1356.11      5.403   -18.981
1375.84      5.443   -18.974
1395.85      5.485   -19.044
1416.15      5.525   -19.186
1436.75      5.562   -19.394
1457.65      5.594   -19.659
1478.85      5.619   -19.971
1500.36      5.638   -20.318
1522.19      5.649   -20.685
1544.33      5.652   -21.059
1566.79      5.648   -21.430
1589.58      5.639   -21.785
1612.70      5.624   -22.115
1636.16      5.606   -22.413
1659.95      5.587   -22.674
1684.10      5.569   -22.901
1708.60      5.553   -23.095
1733.45      5.541   -23.264
1758.66      5.535   -23.418
1784.24      5.535   -23.570
1810.19      5.541   -23.734
1836.52      5.553   -23.922
1863.24      5.571   -24.145
1890.34      5.591   -24.413
1917.83      5.613   -24.731
1945.73      5.633   -25.100
1974.03      5.651   -25.514
2002.74      5.665   -25.966
2031.87      5.672   -26.446
2061.43      5.674   -26.941
2091.41      5.669   -27.437
2121.83      5.659   -27.920
2152.69      5.645   -28.382
2184.01      5.628   -28.818
2215.77      5.612   -29.223
2248.00      5.597   -29.603
2280.70      5.586   -29.966
2313.87      5.580   -30.326
2347.53      5.579   -30.695
2381.68      5.582   -31.088
2416.32      5.588   -31.516
2451.46      5.596   -31.988
2487.12      5.602   -32.503
2523.30      5.605   -33.057
2560.00      5.604   -33.641
2597.24      5.597   -34.245
2635.01      5.584   -34.853
2673.34      5.566   -35.453
2712.23      5.544   -36.035
2751.68      5.520   -36.599
2791.70      5.496   -37.142
2832.31      5.488   -37.692
2873.50      5.480   -38.264
2915.30      5.470   -38.853
2957.70      5.457   -39.451
3000.72      5.443   -40.057
3044.37      5.428   -40.674
3088.65      5.412   -41.309
3133.58      5.395   -41.964
3179.16      5.374   -42.640
3225.40      5.348   -43.331
3272.31      5.317   -44.027
3319.91      5.279   -44.707
3368.20      5.237   -45.352
3417.19      5.193   -45.951
3466.89      5.152   -46.500
3517.32      5.117   -47.010
3568.48      5.093   -47.507
3620.39      5.078   -48.027
3673.05      5.072   -48.604
3726.47      5.070   -49.259
3780.67      5.065   -49.996
3835.67      5.053   -50.800
3891.46      5.031   -51.634
3948.06      4.999   -52.461
4005.49      4.961   -53.252
4063.75      4.922   -53.998
4122.86      4.887   -54.711
4182.82      4.861   -55.424
4243.66      4.841   -56.179
4305.39      4.824   -57.003
4368.01      4.804   -57.901
4431.55      4.776   -58.854
4496.01      4.736   -59.829
4561.40      4.687   -60.783
4627.75      4.633   -61.692
4695.06      4.580   -62.560
4763.35      4.531   -63.408
4832.64      4.487   -64.265
4902.93      4.448   -65.159
4974.24      4.407   -66.102
5046.60      4.363   -67.082
5120.00      4.315   -68.080
5194.47      4.266   -69.054
5270.03      4.217   -70.051
5346.68      4.166   -71.066
5424.45      4.114   -72.097
5503.35      4.063   -73.151
5583.40      4.012   -74.245
5664.61      3.957   -75.400
5747.01      3.894   -76.614
5830.60      3.816   -77.845
5915.41      3.725   -79.036
6001.45      3.627   -80.146
6088.74      3.534   -81.165
6177.30      3.454   -82.147
6267.15      3.388   -83.176
6358.31      3.327   -84.301
6450.80      3.262   -85.516
6544.62      3.188   -86.780
6639.82      3.107   -88.049
6736.40      3.026   -89.327
6834.38      2.943   -90.653
6933.79      2.855   -92.041
7034.64      2.754   -93.457
7136.96      2.644   -94.856
7240.77      2.531   -96.224
7346.09      2.420   -97.594
7452.94      2.307   -99.003
7561.35      2.194  -100.430
7671.33      2.079  -101.906
7782.91      1.957  -103.444
7896.12      1.823  -105.006
8010.97      1.679  -106.566
8127.49      1.527  -108.128
8245.71      1.365  -109.667
8365.65      1.198  -111.132
8487.33      1.040  -112.530
8610.78      0.901  -113.973
8736.03      0.769  -115.587
8863.09      0.620  -117.362
8992.01      0.450  -119.183
9122.80      0.266  -121.007
9255.50      0.068  -122.854
9390.12     -0.145  -124.686
9526.70     -0.367  -126.457
9665.27     -0.586  -128.217
9805.86     -0.811  -130.053
9948.49     -1.044  -131.941
10093.2     -1.292  -133.896
10240.0     -1.563  -135.818
10388.9     -1.836  -137.651
10540.1     -2.101  -139.545
10693.4     -2.382  -141.566
10848.9     -2.682  -143.579
11006.7     -2.985  -145.610
11166.8     -3.300  -147.803
11329.2     -3.655  -150.078
11494.0     -4.040  -152.258
11661.2     -4.433  -154.384
11830.8     -4.841  -156.566
12002.9     -5.270  -158.758
12177.5     -5.732  -161.011
12354.6     -6.214  -163.181
12534.3     -6.699  -165.448
12716.6     -7.230  -167.965
12901.6     -7.834  -170.400
13089.2     -8.463  -172.657
13279.6     -9.119  -175.039
13472.8     -9.843  -177.442
13668.8    -10.612  -179.815
13867.6    -11.456   177.644
14069.3    -12.409   175.172
14273.9    -13.459   172.799
14481.5    -14.639   170.369
14692.2    -16.009   168.107
14905.9    -17.574   166.123
15122.7    -19.477   164.353
15342.7    -21.788   163.798
15565.8    -24.744   163.406
15792.2    -29.550   166.180
16021.9    -41.249  -155.393
16255.0    -37.216   -77.974
16491.4    -28.616   -54.423
16731.3    -24.663   -51.827
16974.7    -21.979   -52.344
17221.6    -20.063   -54.796
17472.1    -18.631   -56.591
17726.2    -17.330   -59.064
17984.0    -16.307   -61.993
18245.6    -15.419   -65.098
18511.0    -14.700   -68.354
18780.2    -14.067   -71.641
19053.4    -13.530   -75.076
19330.5    -13.076   -78.642
19611.7    -12.710   -82.228
19897.0    -12.411   -85.778
20186.4    -12.152   -89.201
20480.0    -11.898   -92.926
20777.9    -11.746   -96.957
21080.1    -11.655  -100.819
21386.7    -11.602  -104.770
21697.8    -11.606  -108.764
22013.4    -11.657  -112.744
22333.6    -11.726  -116.591
22658.4    -11.816  -121.072
22988.0    -12.059  -125.426
23322.4    -12.303  -129.515
23661.6    -12.590  -133.777
24005.8    -12.924  -138.377
24355.0    -13.410  -142.840
24709.2    -13.913  -146.965
25068.6    -14.422  -151.412
25433.2    -15.110  -156.306
25803.2    -15.894  -160.794
26178.5    -16.798  -165.444
26559.3    -17.874  -169.945
26945.6    -19.077  -174.281
27337.5    -20.508  -178.940
27735.2    -22.407   176.361
28138.6    -24.760   172.784
28547.9    -27.963   170.433
28963.1    -33.256   170.015
29384.4    -46.689  -137.273
29811.8    -38.072   -68.791
30245.4    -30.681   -51.241
30685.3    -26.860   -53.032
31131.7    -24.663   -56.511
31584.5    -22.639   -59.622
32043.9    -21.298   -65.899
32510.0    -20.281   -70.741
32982.8    -19.453   -76.095
33462.6    -18.834   -81.569
33949.3    -18.354   -87.369
34443.1    -18.079   -92.666
34944.1    -17.881   -98.441
35452.4    -17.848  -104.153
35968.0    -17.921  -109.698
36491.2    -18.126  -114.972
37022.0    -18.466  -120.270
37560.5    -18.987  -125.234
38106.8    -19.638  -129.416
38661.1    -20.479  -133.232
39223.4    -21.608  -135.010
39793.9    -22.982  -133.219
